#    s [Hz]                    Charge distribution [C/m]
# ------------------------------------------------
-8.548921333333334704e-01 5.381569530564629841e-16
-8.534142789977469112e-01 6.105631047055702281e-16
-8.519364246621603520e-01 6.925598431126303506e-16
-8.504585703265737928e-01 7.853969365079559993e-16
-8.489807159909872336e-01 8.904842603058431955e-16
-8.475028616554006744e-01 1.009411945382334466e-15
-8.460250073198141152e-01 1.143973014751535812e-15
-8.445471529842275560e-01 1.296188809954184421e-15
-8.430692986486409968e-01 1.468337544202888754e-15
-8.415914443130544376e-01 1.662986359203029304e-15
-8.401135899774678784e-01 1.883027307056513289e-15
-8.386357356418813191e-01 2.131717728278069161e-15
-8.371578813062947599e-01 2.412725552289644790e-15
-8.356800269707082007e-01 2.730180108449953897e-15
-8.342021726351216415e-01 3.088729104434528099e-15
-8.327243182995350823e-01 3.493602505399726227e-15
-8.312464639639485231e-01 3.950684132715021572e-15
-8.297686096283619639e-01 4.466591896105704052e-15
-8.282907552927754047e-01 5.048767678889277356e-15
-8.268129009571888455e-01 5.705578013805317762e-15
-8.253350466216022863e-01 6.446426818053185054e-15
-8.238571922860157271e-01 7.281881602028589361e-15
-8.223793379504291678e-01 8.223814728508432597e-15
-8.209014836148426086e-01 9.285561479467504580e-15
-8.194236292792560494e-01 1.048209688830652019e-14
-8.179457749436694902e-01 1.183023351822101523e-14
-8.164679206080829310e-01 1.334884261517830516e-14
-8.149900662724963718e-01 1.505910133917339550e-14
-8.135122119369098126e-01 1.698476908307795880e-14
-8.120343576013232534e-01 1.915249622775347501e-14
-8.105565032657366942e-01 2.159216905879822419e-14
-8.090786489301501350e-01 2.433729498833199442e-14
-8.076007945945635758e-01 2.742543268901640398e-14
-8.061229402589770165e-01 3.089867226193690795e-14
-8.046450859233904573e-01 3.480417113041021939e-14
-8.031672315878038981e-01 3.919475198417385770e-14
-8.016893772522173389e-01 4.412956979930063907e-14
-8.002115229166307797e-01 4.967485573578863561e-14
-7.987336685810442205e-01 5.590474657505071914e-14
-7.972558142454576613e-01 6.290220931225091395e-14
-7.957779599098711021e-01 7.076007157325678796e-14
-7.943001055742845429e-01 7.958216969354851648e-14
-7.928222512386979837e-01 8.948462758844047485e-14
-7.913443969031114245e-01 1.005972809733648111e-13
-7.898665425675248652e-01 1.130652630738794544e-13
-7.883886882319383060e-01 1.270507697131674981e-13
-7.869108338963517468e-01 1.427350235971851226e-13
-7.854329795607651876e-01 1.603204597532886218e-13
-7.839551252251786284e-01 1.800331564377169833e-13
-7.824772708895920692e-01 2.021255384337408694e-13
-7.809994165540055100e-01 2.268793825404430892e-13
-7.795215622184189508e-01 2.546091582297070819e-13
-7.780437078828323916e-01 2.856657399561004769e-13
-7.765658535472458324e-01 3.204405314742223396e-13
-7.750879992116592732e-01 3.593700467871240650e-13
-7.736101448760727139e-01 4.029409970574832098e-13
-7.721322905404861547e-01 4.516959380042090040e-13
-7.706544362048995955e-01 5.062395380289986698e-13
-7.691765818693130363e-01 5.672455336227509026e-13
-7.676987275337264771e-01 6.354644455483750064e-13
-7.662208731981399179e-01 7.117321369475149007e-13
-7.647430188625533587e-01 7.969793029432781578e-13
-7.632651645269667995e-01 8.922419905851063885e-13
-7.617873101913802403e-01 9.986732581881757450e-13
-7.603094558557936811e-01 1.117556094349020029e-12
-7.588316015202071219e-01 1.250317729270908155e-12
-7.573537471846205626e-01 1.398545484614899999e-12
-7.558758928490340034e-01 1.564004323024891892e-12
-7.543980385134474442e-01 1.748656274886541772e-12
-7.529201841778608850e-01 1.954681937912446284e-12
-7.514423298422743258e-01 2.184504264954901077e-12
-7.499644755066877666e-01 2.440814877201051237e-12
-7.484866211711012074e-01 2.726603163788850713e-12
-7.470087668355146482e-01 3.045188455096772083e-12
-7.455309124999280890e-01 3.400255585725927172e-12
-7.440530581643415298e-01 3.795894194749647056e-12
-7.425752038287549706e-01 4.236642145414390220e-12
-7.410973494931684113e-01 4.727533484421877718e-12
-7.396194951575818521e-01 5.274151402516775066e-12
-7.381416408219952929e-01 5.882686703684156589e-12
-7.366637864864087337e-01 6.560002340196916217e-12
-7.351859321508221745e-01 7.313704625445241749e-12
-7.337080778152356153e-01 8.152221796365247625e-12
-7.322302234796490561e-01 9.084890662836962659e-12
-7.307523691440624969e-01 1.012205215316268317e-11
-7.292745148084759377e-01 1.127515664322312035e-11
-7.277966604728893785e-01 1.255688004275568966e-11
-7.263188061373028193e-01 1.398125170607303747e-11
-7.248409518017162601e-01 1.556379533715367922e-11
-7.233630974661297008e-01 1.732168417118929054e-11
-7.218852431305431416e-01 1.927391183719926660e-11
-7.204073887949565824e-01 2.144148044016447263e-11
-7.189295344593700232e-01 2.384760754727765228e-11
-7.174516801237834640e-01 2.651795392245373447e-11
-7.159738257881969048e-01 2.948087402737127567e-11
-7.144959714526103456e-01 3.276769149729935441e-11
-7.130181171170237864e-01 3.641300200719850816e-11
-7.115402627814372272e-01 4.045500616956127325e-11
-7.100624084458506680e-01 4.493587535182906507e-11
-7.085845541102641088e-01 4.990215356971057117e-11
-7.071066997746775495e-01 5.540519890529543257e-11
-7.056288454390909903e-01 6.150166821751921461e-11
-7.041509911035044311e-01 6.825404925956138063e-11
-7.026731367679178719e-01 7.573124469555459347e-11
-7.011952824323313127e-01 8.400921292015698001e-11
-6.997174280967447535e-01 9.317167103192622636e-11
-6.982395737611581943e-01 1.033108657980807911e-10
-6.967617194255716351e-01 1.145284189774445710e-10
-6.952838650899850759e-01 1.269362539436819758e-10
-6.938060107543985167e-01 1.406576111762326449e-10
-6.923281564188119575e-01 1.558281608657451596e-10
-6.908503020832253982e-01 1.725972216187873680e-10
-6.893724477476388390e-01 1.911290950480115704e-10
-6.878945934120522798e-01 2.116045269039550582e-10
-6.864167390764657206e-01 2.342223063488753851e-10
-6.849388847408791614e-01 2.592010159975206932e-10
-6.834610304052926022e-01 2.867809464609705209e-10
-6.819831760697060430e-01 3.172261903347248231e-10
-6.805053217341194838e-01 3.508269318785600938e-10
-6.790274673985329246e-01 3.879019500514067167e-10
-6.775496130629463654e-01 4.288013540984745091e-10
-6.760717587273598062e-01 4.739095725492679924e-10
-6.745939043917732469e-01 5.236486182842321956e-10
-6.731160500561866877e-01 5.784816542753081844e-10
-6.716381957206001285e-01 6.389168867133556242e-10
-6.701603413850135693e-01 7.055118145156237090e-10
-6.686824870494270101e-01 7.788778666727676528e-10
-6.672046327138404509e-01 8.596854615617046882e-10
-6.657267783782538917e-01 9.486695252330250982e-10
-6.642489240426673325e-01 1.046635508797060468e-09
-6.627710697070807733e-01 1.154465948397648373e-09
-6.612932153714942141e-01 1.273127614897528609e-09
-6.598153610359076549e-01 1.403679304323161906e-09
-6.583375067003210956e-01 1.547280324352756562e-09
-6.568596523647345364e-01 1.705199736701583336e-09
-6.553817980291479772e-01 1.878826420189140627e-09
-6.539039436935614180e-01 2.069680024589952756e-09
-6.524260893579748588e-01 2.279422891101768825e-09
-6.509482350223882996e-01 2.509873021443441697e-09
-6.494703806868017404e-01 2.763018184251279866e-09
-6.479925263512151812e-01 3.041031254612991246e-09
-6.465146720156286220e-01 3.346286890299243373e-09
-6.450368176800420628e-01 3.681379656564385660e-09
-6.435589633444555036e-01 4.049143720332816498e-09
-6.420811090088689443e-01 4.452674244210129244e-09
-6.406032546732823851e-01 4.895350621108044751e-09
-6.391254003376958259e-01 5.380861701400443341e-09
-6.376475460021092667e-01 5.913233176488332882e-09
-6.361696916665227075e-01 6.496857295504532493e-09
-6.346918373309361483e-01 7.136525105695417747e-09
-6.332139829953495891e-01 7.837461421843063106e-09
-6.317361286597630299e-01 8.605362746008490201e-09
-6.302582743241764707e-01 9.446438375959292319e-09
-6.287804199885899115e-01 1.036745495897112916e-08
-6.273025656530033523e-01 1.137578476735248947e-08
-6.258247113174167930e-01 1.247945799311597549e-08
-6.243468569818302338e-01 1.368721938181418528e-08
-6.228690026462436746e-01 1.500858954976594059e-08
-6.213911483106571154e-01 1.645393135483176057e-08
-6.199132939750705562e-01 1.803452171866817645e-08
-6.184354396394839970e-01 1.976262932812247883e-08
-6.169575853038974378e-01 2.165159867524427797e-08
-6.154797309683108786e-01 2.371594092943356916e-08
-6.140018766327243194e-01 2.597143217164962218e-08
-6.125240222971377602e-01 2.843521955953341788e-08
-6.110461679615512010e-01 3.112593603389954535e-08
-6.095683136259646417e-01 3.406382422151166566e-08
-6.080904592903780825e-01 3.727087023653841228e-08
-6.066126049547915233e-01 4.077094813379374256e-08
-6.051347506192049641e-01 4.458997582099133575e-08
-6.036568962836184049e-01 4.875608329499889750e-08
-6.021790419480318457e-01 5.329979412869533521e-08
-6.007011876124452865e-01 5.825422120073885534e-08
-5.992233332768587273e-01 6.365527773059911890e-08
-5.977454789412721681e-01 6.954190475585988000e-08
-5.962676246056856089e-01 7.595631626832306079e-08
-5.947897702700990497e-01 8.294426331014156948e-08
-5.933119159345124904e-01 9.055531842138730546e-08
-5.918340615989259312e-01 9.884318192641756514e-08
-5.903562072633393720e-01 1.078660116485180124e-07
-5.888783529277528128e-01 1.176867777508824641e-07
-5.874004985921662536e-01 1.283736445174562268e-07
-5.859226442565796944e-01 1.400003810098691137e-07
-5.844447899209931352e-01 1.526468026670698127e-07
-5.829669355854065760e-01 1.663992460527431259e-07
-5.814890812498200168e-01 1.813510791026080782e-07
-5.800112269142334576e-01 1.976032493797499662e-07
-5.785333725786468984e-01 2.152648730116858831e-07
-5.770555182430603391e-01 2.344538671584729395e-07
-5.755776639074737799e-01 2.552976290473400279e-07
-5.740998095718872207e-01 2.779337648066418602e-07
-5.726219552363006615e-01 3.025108715409918536e-07
-5.711441009007141023e-01 3.291893763108680908e-07
-5.696662465651275431e-01 3.581424359143771436e-07
-5.681883922295409839e-01 3.895569016169639595e-07
-5.667105378939544247e-01 4.236343532373660580e-07
-5.652326835583678655e-01 4.605922072756243448e-07
-5.637548292227813063e-01 5.006649040624813715e-07
-5.622769748871947471e-01 5.441051792195928167e-07
-5.607991205516081878e-01 5.911854250475703391e-07
-5.593212662160216286e-01 6.421991478048176154e-07
-5.578434118804350694e-01 6.974625272053588050e-07
-5.563655575448485102e-01 7.573160848490907512e-07
-5.548877032092619510e-01 8.221264687044191907e-07
-5.534098488736753918e-01 8.922883611917388663e-07
-5.519319945380888326e-01 9.682265188679162834e-07
-5.504541402025022734e-01 1.050397952187742647e-06
-5.489762858669157142e-01 1.139294254319559014e-06
-5.474984315313291550e-01 1.235444088519721321e-06
-5.460205771957425958e-01 1.339415844125855250e-06
-5.445427228601560365e-01 1.451820471812677980e-06
-5.430648685245694773e-01 1.573314509368343972e-06
-5.415870141889829181e-01 1.704603309894429301e-06
-5.401091598533963589e-01 1.846444485010823942e-06
-5.386313055178097997e-01 1.999651576358677149e-06
-5.371534511822232405e-01 2.165097969441987691e-06
-5.356755968466366813e-01 2.343721064632622935e-06
-5.341977425110501221e-01 2.536526720986067612e-06
-5.327198881754635629e-01 2.744593989377410411e-06
-5.312420338398770037e-01 2.969080152370897600e-06
-5.297641795042904445e-01 3.211226089182504197e-06
-5.282863251687038852e-01 3.472361985086325839e-06
-5.268084708331173260e-01 3.753913405652419920e-06
-5.253306164975307668e-01 4.057407757288687863e-06
-5.238527621619442076e-01 4.384481156693524268e-06
-5.223749078263576484e-01 4.736885733011634990e-06
-5.208970534907710892e-01 5.116497387723572814e-06
-5.194191991551845300e-01 5.525324038592395802e-06
-5.179413448195979708e-01 5.965514375340661453e-06
-5.164634904840114116e-01 6.439367156137868584e-06
-5.149856361484248524e-01 6.949341075446604611e-06
-5.135077818128382932e-01 7.498065235304538454e-06
-5.120299274772517339e-01 8.088350253712417594e-06
-5.105520731416651747e-01 8.723200045456729301e-06
-5.090742188060786155e-01 9.405824312420707611e-06
-5.075963644704920563e-01 1.013965178223208394e-05
-5.061185101349054971e-01 1.092834423596161755e-05
-5.046406557993189379e-01 1.177581136752285250e-05
-5.031628014637323787e-01 1.268622651943730017e-05
-5.016849471281458195e-01 1.366404334171532816e-05
-5.002070927925592603e-01 1.471401342276990620e-05
-4.987292384569727011e-01 1.584120494352404815e-05
-4.972513841213861419e-01 1.705102240819883830e-05
-4.957735297857995826e-01 1.834922750767560486e-05
-4.942956754502130234e-01 1.974196117381865365e-05
-4.928178211146264642e-01 2.123576688571906075e-05
-4.913399667790399050e-01 2.283761529148450897e-05
-4.898621124434533458e-01 2.455493021194851740e-05
-4.883842581078667866e-01 2.639561609551135273e-05
-4.869064037722802274e-01 2.836808699625225676e-05
-4.854285494366936682e-01 3.048129715047004389e-05
-4.839506951011071090e-01 3.274477322991772003e-05
-4.824728407655205498e-01 3.516864835319703705e-05
-4.809949864299339906e-01 3.776369794006709978e-05
-4.795171320943474313e-01 4.054137749680877925e-05
-4.780392777587608721e-01 4.351386242425562807e-05
-4.765614234231743129e-01 4.669408994367111980e-05
-4.750835690875877537e-01 5.009580323930714035e-05
-4.736057147520011945e-01 5.373359792022453749e-05
-4.721278604164146353e-01 5.762297090779233325e-05
-4.706500060808280761e-01 6.178037185920427158e-05
-4.691721517452415169e-01 6.622325724136242701e-05
-4.676942974096549577e-01 7.097014717356695977e-05
-4.662164430740683985e-01 7.604068516162975386e-05
-4.647385887384818393e-01 8.145570085028431379e-05
-4.632607344028952800e-01 8.723727592508863664e-05
-4.617828800673087208e-01 9.340881329943274839e-05
-4.603050257317221616e-01 9.999510972672649158e-05
-4.588271713961356024e-01 1.070224319823845078e-04
-4.573493170605490432e-01 1.145185967648272552e-04
-4.558714627249624840e-01 1.225130544693694556e-04
-4.543936083893759248e-01 1.310369769935704198e-04
-4.529157540537893656e-01 1.401233497373719026e-04
-4.514378997182028064e-01 1.498070679661367985e-04
-4.499600453826162472e-01 1.601250377095134658e-04
-4.484821910470296880e-01 1.711162813738944459e-04
-4.470043367114431287e-01 1.828220482510876878e-04
-4.455264823758565695e-01 1.952859301106820073e-04
-4.440486280402700103e-01 2.085539820684404518e-04
-4.425707737046834511e-01 2.226748489278918127e-04
-4.410929193690968919e-01 2.376998971971181016e-04
-4.396150650335103327e-01 2.536833529875027701e-04
-4.381372106979237735e-01 2.706824460059403044e-04
-4.366593563623372143e-01 2.887575598566814142e-04
-4.351815020267506551e-01 3.079723888735722850e-04
-4.337036476911640959e-01 3.283941017079600069e-04
-4.322257933555775367e-01 3.500935119019279074e-04
-4.307479390199909774e-01 3.731452556808160029e-04
-4.292700846844044182e-01 3.976279772031052792e-04
-4.277922303488178590e-01 4.236245215097464065e-04
-4.263143760132312998e-01 4.512221354188217562e-04
-4.248365216776447406e-01 4.805126766150548336e-04
-4.233586673420581814e-01 5.115928311870758223e-04
-4.218808130064716222e-01 5.445643398685437757e-04
-4.204029586708850630e-01 5.795342332421425441e-04
-4.189251043352985038e-01 6.166150761681071313e-04
-4.174472499997119446e-01 6.559252217012717266e-04
-4.159693956641253854e-01 6.975890747626674977e-04
-4.144915413285388261e-01 7.417373658333618848e-04
-4.130136869929522669e-01 7.885074349394915723e-04
-4.115358326573657077e-01 8.380435261983848992e-04
-4.100579783217791485e-01 8.904970931960829806e-04
-4.085801239861925893e-01 9.460271154665974387e-04
-4.071022696506060301e-01 1.004800426342735776e-03
-4.056244153150194709e-01 1.066992052447368611e-03
-4.041465609794329117e-01 1.132785565092387682e-03
-4.026687066438463525e-01 1.202373443850572035e-03
-4.011908523082597933e-01 1.275957452562765564e-03
-3.997129979726732341e-01 1.353749028039438404e-03
-3.982351436370866749e-01 1.435969681711623180e-03
-3.967572893015001156e-01 1.522851414481502484e-03
-3.952794349659135564e-01 1.614637145017375642e-03
-3.938015806303269972e-01 1.711581151731443595e-03
-3.923237262947404380e-01 1.813949528671879091e-03
-3.908458719591538788e-01 1.922020655552549723e-03
-3.893680176235673196e-01 2.036085682135064558e-03
-3.878901632879807604e-01 2.156449027168096718e-03
-3.864123089523942012e-01 2.283428892078136728e-03
-3.849344546168076420e-01 2.417357789594348425e-03
-3.834566002812210828e-01 2.558583087477334529e-03
-3.819787459456345236e-01 2.707467567508025242e-03
-3.805008916100479643e-01 2.864389999877999578e-03
-3.790230372744614051e-01 3.029745733106590979e-03
-3.775451829388748459e-01 3.203947299593130644e-03
-3.760673286032882867e-01 3.387425036894180751e-03
-3.745894742677017275e-01 3.580627724796317871e-03
-3.731116199321151683e-01 3.784023238234120005e-03
-3.716337655965286091e-01 3.998099216080934146e-03
-3.701559112609420499e-01 4.223363745816743377e-03
-3.686780569253554907e-01 4.460346064052678541e-03
-3.672002025897689315e-01 4.709597272865603639e-03
-3.657223482541823723e-01 4.971691071868802880e-03
-3.642444939185958130e-01 5.247224505915934131e-03
-3.627666395830092538e-01 5.536818728305002019e-03
-3.612887852474226946e-01 5.841119779317427083e-03
-3.598109309118361354e-01 6.160799379893967635e-03
-3.583330765762495762e-01 6.496555740214586018e-03
-3.568552222406630170e-01 6.849114382913135124e-03
-3.553773679050764578e-01 7.219228980619833008e-03
-3.538995135694898986e-01 7.607682207485564480e-03
-3.524216592339033394e-01 8.015286604300876638e-03
-3.509438048983167802e-01 8.442885456780678186e-03
-3.494659505627302210e-01 8.891353686541441162e-03
-3.479880962271436617e-01 9.361598754252780513e-03
-3.465102418915571025e-01 9.854561574398082446e-03
-3.450323875559705433e-01 1.037121744103090999e-02
-3.435545332203839841e-01 1.091257696386404435e-02
-3.420766788847974249e-01 1.147968701397657221e-02
-3.405988245492108657e-01 1.207363167837231799e-02
-3.391209702136243065e-01 1.269553322256850719e-02
-3.376431158780377473e-01 1.334655306033818122e-02
-3.361652615424511881e-01 1.402789272967378681e-02
-3.346874072068646289e-01 1.474079487398055263e-02
-3.332095528712780697e-01 1.548654422745016253e-02
-3.317316985356915104e-01 1.626646860350400639e-02
-3.302538442001049512e-01 1.708193988513471637e-02
-3.287759898645183920e-01 1.793437501591185063e-02
-3.272981355289318328e-01 1.882523699035427295e-02
-3.258202811933452736e-01 1.975603584230816237e-02
-3.243424268577587144e-01 2.072832962990366762e-02
-3.228645725221721552e-01 2.174372541559838404e-02
-3.213867181865855960e-01 2.280388023974922601e-02
-3.199088638509990368e-01 2.391050208608763369e-02
-3.184310095154124776e-01 2.506535083740591904e-02
-3.169531551798259184e-01 2.627023921969491929e-02
-3.154753008442393591e-01 2.752703373290641201e-02
-3.139974465086527999e-01 2.883765556644517225e-02
-3.125195921730662407e-01 3.020408149742922349e-02
-3.110417378374796815e-01 3.162834476968864189e-02
-3.095638835018931223e-01 3.311253595140778438e-02
-3.080860291663065631e-01 3.465880376924844464e-02
-3.066081748307200039e-01 3.626935591672730830e-02
-3.051303204951334447e-01 3.794645983455531557e-02
-3.036524661595468855e-01 3.969244346058426604e-02
-3.021746118239603263e-01 4.150969594694327303e-02
-3.006967574883737671e-01 4.340066834188616163e-02
-2.992189031527872078e-01 4.536787423381440087e-02
-2.977410488172006486e-01 4.741389035487895975e-02
-2.962631944816140894e-01 4.954135714151280262e-02
-2.947853401460275302e-01 5.175297924919045750e-02
-2.933074858104409710e-01 5.405152601866153317e-02
-2.918296314748544118e-01 5.643983189085623881e-02
-2.903517771392678526e-01 5.892079676761598217e-02
-2.888739228036812934e-01 6.149738631536114108e-02
-2.873960684680947342e-01 6.417263220876757990e-02
-2.859182141325081750e-01 6.694963231148842731e-02
-2.844403597969216158e-01 6.983155079092828732e-02
-2.829625054613350565e-01 7.282161816404560117e-02
-2.814846511257484973e-01 7.592313127113900495e-02
-2.800067967901619381e-01 7.913945317455294004e-02
