#    s [m]                    WP [V/pC]
# ------------------------------------------------
-8.548921333333334704e-01 -7.141498621446881770e-17
-8.534142789977469112e-01 -8.083033246310074842e-17
-8.519364246621603520e-01 -9.148754862047672455e-17
-8.504585703265737928e-01 -1.035520320066092323e-16
-8.489807159909872336e-01 -1.172161585194083755e-16
-8.475028616554006744e-01 -1.326996415164322065e-16
-8.460250073198141152e-01 -1.502493337800039524e-16
-8.445471529842275560e-01 -1.701403953734239422e-16
-8.430692986486409968e-01 -1.926799002631771378e-16
-8.415914443130544376e-01 -2.182125986038766078e-16
-8.401135899774678784e-01 -2.471275637163220777e-16
-8.386357356418813191e-01 -2.798644170923473208e-16
-8.371578813062947599e-01 -3.169186936811329547e-16
-8.356800269707082007e-01 -3.588470694725954440e-16
-8.342021726351216415e-01 -4.062738574048976790e-16
-8.327243182995350823e-01 -4.598999562550171027e-16
-8.312464639639485231e-01 -5.205144758001298171e-16
-8.297686096283619639e-01 -5.890081959729146872e-16
-8.282907552927754047e-01 -6.663875414531568440e-16
-8.268129009571888455e-01 -7.537881856957693023e-16
-8.253350466216022863e-01 -8.524885011718656423e-16
-8.238571922860157271e-01 -9.639242087245258313e-16
-8.223793379504291678e-01 -1.089706098059070086e-15
-8.209014836148426086e-01 -1.231642297634368860e-15
-8.194236292792560494e-01 -1.391765471353823522e-15
-8.179457749436694902e-01 -1.572364092021737326e-15
-8.164679206080829310e-01 -1.776016240816525765e-15
-8.149900662724963718e-01 -2.005624619500331159e-15
-8.135122119369098126e-01 -2.264452612038476009e-15
-8.120343576013232534e-01 -2.556162818449855970e-15
-8.105565032657366942e-01 -2.884860754884505602e-15
-8.090786489301501350e-01 -3.255146672377971756e-15
-8.076007945945635758e-01 -3.672177427122200821e-15
-8.061229402589770165e-01 -4.141738451418701267e-15
-8.046450859233904573e-01 -4.670324133651245634e-15
-8.031672315878038981e-01 -5.265224429270913436e-15
-8.016893772522173389e-01 -5.934616819617304607e-15
-8.002115229166307797e-01 -6.687665293722344432e-15
-7.987336685810442205e-01 -7.534630456328088986e-15
-7.972558142454576613e-01 -8.486995712324795214e-15
-7.957779599098711021e-01 -9.557613224204352251e-15
-7.943001055742845429e-01 -1.076087083886914808e-14
-7.928222512386979837e-01 -1.211287914296081810e-14
-7.913443969031114245e-01 -1.363167760783640885e-14
-7.898665425675248652e-01 -1.533746047413168627e-14
-7.883886882319383060e-01 -1.725282532486275477e-14
-7.869108338963517468e-01 -1.940304866094895377e-14
-7.854329795607651876e-01 -2.181639268980211563e-14
-7.839551252251786284e-01 -2.452444684892232937e-14
-7.824772708895920692e-01 -2.756250773212405481e-14
-7.809994165540055100e-01 -3.097000257419982355e-14
-7.795215622184189508e-01 -3.479096318860042925e-14
-7.780437078828323916e-01 -3.907455741374874524e-14
-7.765658535472458324e-01 -4.387568298084913235e-14
-7.750879992116592732e-01 -4.925562583592275821e-14
-7.736101448760727139e-01 -5.528278440822950046e-14
-7.721322905404861547e-01 -6.203346522660039869e-14
-7.706544362048995955e-01 -6.959276253824820614e-14
-7.691765818693130363e-01 -7.805554094481087344e-14
-7.676987275337264771e-01 -8.752754101734262241e-14
-7.662208731981399179e-01 -9.812662225191173320e-14
-7.647430188625533587e-01 -1.099841493522572730e-13
-7.632651645269667995e-01 -1.232465231228572793e-13
-7.617873101913802403e-01 -1.380768607040241157e-13
-7.603094558557936811e-01 -1.546568404352352185e-13
-7.588316015202071219e-01 -1.731887382140448527e-13
-7.573537471846205626e-01 -1.938976881519485185e-13
-7.558758928490340034e-01 -2.170341984159661777e-13
-7.543980385134474442e-01 -2.428769473214765675e-13
-7.529201841778608850e-01 -2.717358818866731592e-13
-7.514423298422743258e-01 -3.039556454113590992e-13
-7.499644755066877666e-01 -3.399193703563925435e-13
-7.484866211711012074e-01 -3.800528815313983004e-13
-7.470087668355146482e-01 -4.248293569303395448e-13
-7.455309124999280890e-01 -4.747744898148526971e-13
-7.440530581643415298e-01 -5.304721920373114493e-13
-7.425752038287549706e-01 -5.925708823511005558e-13
-7.410973494931684113e-01 -6.617904168639147990e-13
-7.396194951575818521e-01 -7.389297370080462585e-13
-7.381416408219952929e-01 -8.248753249539821638e-13
-7.366637864864087337e-01 -9.206105616598522546e-13
-7.351859321508221745e-01 -1.027226080285198037e-12
-7.337080778152356153e-01 -1.145931204988286866e-12
-7.322302234796490561e-01 -1.278066569871685046e-12
-7.307523691440624969e-01 -1.425118027388384621e-12
-7.292745148084759377e-01 -1.588731975771968897e-12
-7.277966604728893785e-01 -1.770732254377497715e-12
-7.263188061373028193e-01 -1.973138770472285868e-12
-7.248409518017162601e-01 -2.198188032624654444e-12
-7.233630974661297008e-01 -2.448355779206090494e-12
-7.218852431305431416e-01 -2.726381909047808398e-12
-7.204073887949565824e-01 -3.035297944121537407e-12
-7.189295344593700232e-01 -3.378457277366471813e-12
-7.174516801237834640e-01 -3.759568479575696407e-12
-7.159738257881969048e-01 -4.182731958814034937e-12
-7.144959714526103456e-01 -4.652480288975026759e-12
-7.130181171170237864e-01 -5.173822555418421277e-12
-7.115402627814372272e-01 -5.752293105842907479e-12
-7.100624084458506680e-01 -6.394005139773342492e-12
-7.085845541102641088e-01 -7.105709614870718821e-12
-7.071066997746775495e-01 -7.894859989906634473e-12
-7.056288454390909903e-01 -8.769683364568129419e-12
-7.041509911035044311e-01 -9.739258620400791235e-12
-7.026731367679178719e-01 -1.081360222002102900e-11
-7.011952824323313127e-01 -1.200376238496351518e-11
-6.997174280967447535e-01 -1.332192244445079954e-11
-6.982395737611581943e-01 -1.478151422479228447e-11
-6.967617194255716351e-01 -1.639734242977800471e-11
-6.952838650899850759e-01 -1.818572104631668184e-11
-6.938060107543985167e-01 -2.016462289864563818e-11
-6.923281564188119575e-01 -2.235384357156896674e-11
-6.908503020832253982e-01 -2.477518103111691666e-11
-6.893724477476388390e-01 -2.745263239165093377e-11
-6.878945934120522798e-01 -3.041260941228888806e-11
-6.864167390764657206e-01 -3.368417445151338952e-11
-6.849388847408791614e-01 -3.729929876484040910e-11
-6.834610304052926022e-01 -4.129314519492252635e-11
-6.819831760697060430e-01 -4.570437747729438145e-11
-6.805053217341194838e-01 -5.057549857225739696e-11
-6.790274673985329246e-01 -5.595322063999458581e-11
-6.775496130629463654e-01 -6.188886950659438959e-11
-6.760717587273598062e-01 -6.843882672397881204e-11
-6.745939043917732469e-01 -7.566501260359553966e-11
-6.731160500561866877e-01 -8.363541389795620512e-11
-6.716381957206001285e-01 -9.242466011454610128e-11
-6.701603413850135693e-01 -1.021146527775858814e-10
-6.686824870494270101e-01 -1.127952523127212916e-10
-6.672046327138404509e-01 -1.245650276259908435e-10
-6.657267783782538917e-01 -1.375320738848846709e-10
-6.642489240426673325e-01 -1.518149044841976202e-10
-6.627710697070807733e-01 -1.675434236882625716e-10
-6.612932153714942141e-01 -1.848599869817371648e-10
-6.598153610359076549e-01 -2.039205567366858287e-10
-6.583375067003210956e-01 -2.248959614232833717e-10
-6.568596523647345364e-01 -2.479732672659840392e-10
-6.553817980291479772e-01 -2.733572719849909133e-10
-6.539039436935614180e-01 -3.012721310672619907e-10
-6.524260893579748588e-01 -3.319631278796524646e-10
-6.509482350223882996e-01 -3.656985998657352556e-10
-6.494703806868017404e-01 -4.027720340567362861e-10
-6.479925263512151812e-01 -4.435043461824146588e-10
-6.465146720156286220e-01 -4.882463588020325368e-10
-6.450368176800420628e-01 -5.373814951036318757e-10
-6.435589633444555036e-01 -5.913287063540582511e-10
-6.420811090088689443e-01 -6.505456524275108666e-10
-6.406032546732823851e-01 -7.155321563966228032e-10
-6.391254003376958259e-01 -7.868339558356701745e-10
-6.376475460021092667e-01 -8.650467752626785775e-10
-6.361696916665227075e-01 -9.508207460476186005e-10
-6.346918373309361483e-01 -1.044865202154462683e-09
-6.332139829953495891e-01 -1.147953882282997054e-09
-6.317361286597630299e-01 -1.260930571345461134e-09
-6.302582743241764707e-01 -1.384715216759673142e-09
-6.287804199885899115e-01 -1.520310557768243038e-09
-6.273025656530033523e-01 -1.668809308911731797e-09
-6.258247113174167930e-01 -1.831401941905861625e-09
-6.243468569818302338e-01 -2.009385113522854446e-09
-6.228690026462436746e-01 -2.204170790671443858e-09
-6.213911483106571154e-01 -2.417296127725809846e-09
-6.199132939750705562e-01 -2.650434155278008288e-09
-6.184354396394839970e-01 -2.905405343891335661e-09
-6.169575853038974378e-01 -3.184190111128704300e-09
-6.154797309683108786e-01 -3.488942345150180588e-09
-6.140018766327243194e-01 -3.822004023550263692e-09
-6.125240222971377602e-01 -4.185921011868781854e-09
-6.110461679615512010e-01 -4.583460132381955258e-09
-6.095683136259646417e-01 -5.017627600370500226e-09
-6.080904592903780825e-01 -5.491688932084171795e-09
-6.066126049547915233e-01 -6.009190436090246362e-09
-6.051347506192049641e-01 -6.573982407651115455e-09
-6.036568962836184049e-01 -7.190244154265063446e-09
-6.021790419480318457e-01 -7.862510989575812310e-09
-6.007011876124452865e-01 -8.595703342550884794e-09
-5.992233332768587273e-01 -9.395158139168090434e-09
-5.977454789412721681e-01 -1.026666262485281706e-08
-5.962676246056856089e-01 -1.121649080759694447e-08
-5.947897702700990497e-01 -1.225144271410137521e-08
-5.933119159345124904e-01 -1.337888666448030252e-08
-5.918340615989259312e-01 -1.460680478510860858e-08
-5.903562072633393720e-01 -1.594384199415111470e-08
-5.888783529277528128e-01 -1.739935871024332761e-08
-5.874004985921662536e-01 -1.898348755172190653e-08
-5.859226442565796944e-01 -2.070719431177052746e-08
-5.844447899209931352e-01 -2.258234351389276172e-08
-5.829669355854065760e-01 -2.462176887230522663e-08
-5.814890812498200168e-01 -2.683934900324019060e-08
-5.800112269142334576e-01 -2.925008875585572558e-08
-5.785333725786468984e-01 -3.187020655554676118e-08
-5.770555182430603391e-01 -3.471722817801708865e-08
-5.755776639074737799e-01 -3.781008739954281776e-08
-5.740998095718872207e-01 -4.116923399752351197e-08
-5.726219552363006615e-01 -4.481674960570370462e-08
-5.711441009007141023e-01 -4.877647196048391890e-08
-5.696662465651275431e-01 -5.307412810860756746e-08
-5.681883922295409839e-01 -5.773747718236227532e-08
-5.667105378939544247e-01 -6.279646338633684978e-08
-5.652326835583678655e-01 -6.828337987984421282e-08
-5.637548292227813063e-01 -7.423304428143076102e-08
-5.622769748871947471e-01 -8.068298656650489698e-08
-5.607991205516081878e-01 -8.767365017614111917e-08
-5.593212662160216286e-01 -9.524860720470789049e-08
-5.578434118804350694e-01 -1.034547885862060596e-07
-5.563655575448485102e-01 -1.123427302543579611e-07
-5.548877032092619510e-01 -1.219668363095696677e-07
-5.534098488736753918e-01 -1.323856602871190386e-07
-5.519319945380888326e-01 -1.436622056853437631e-07
-5.504541402025022734e-01 -1.558642469803384012e-07
-5.489762858669157142e-01 -1.690646724248340468e-07
-5.474984315313291550e-01 -1.833418500037476841e-07
-5.460205771957425958e-01 -1.987800179973855497e-07
-5.445427228601560365e-01 -2.154697016858929862e-07
-5.430648685245694773e-01 -2.335081578151465666e-07
-5.415870141889829181e-01 -2.529998485352997096e-07
-5.401091598533963589e-01 -2.740569466186020245e-07
-5.386313055178097997e-01 -2.967998738631389876e-07
-5.371534511822232405e-01 -3.213578746938594573e-07
-5.356755968466366813e-01 -3.478696270819865170e-07
-5.341977425110501221e-01 -3.764838930186712337e-07
-5.327198881754635629e-01 -4.073602108989160813e-07
-5.312420338398770037e-01 -4.406696322973575632e-07
-5.297641795042904445e-01 -4.765955057489345867e-07
-5.282863251687038852e-01 -5.153343102846324123e-07
-5.268084708331173260e-01 -5.570965416158242712e-07
-5.253306164975307668e-01 -6.021076540102761471e-07
-5.238527621619442076e-01 -6.506090610588843630e-07
-5.223749078263576484e-01 -7.028591986947793947e-07
-5.208970534907710892e-01 -7.591346539959540314e-07
-5.194191991551845300e-01 -8.197313634791063095e-07
-5.179413448195979708e-01 -8.849658847760308481e-07
-5.164634904840114116e-01 -9.551767457752068881e-07
-5.149856361484248524e-01 -1.030725875509743036e-06
-5.135077818128382932e-01 -1.112000121279628042e-06
-5.120299274772517339e-01 -1.199412856710390176e-06
-5.105520731416651747e-01 -1.293405685672978215e-06
-5.090742188060786155e-01 -1.394450247220729578e-06
-5.075963644704920563e-01 -1.503050126938497030e-06
-5.061185101349054971e-01 -1.619742880347036852e-06
-5.046406557993189379e-01 -1.745102174262953200e-06
-5.031628014637323787e-01 -1.879740052279563859e-06
-5.016849471281458195e-01 -2.024309330809273917e-06
-5.002070927925592603e-01 -2.179506132411664640e-06
-4.987292384569727011e-01 -2.346072563424365171e-06
-4.972513841213861419e-01 -2.524799543216818080e-06
-4.957735297857995826e-01 -2.716529792698117170e-06
-4.942956754502130234e-01 -2.922160990032314625e-06
-4.928178211146264642e-01 -3.142649101845128302e-06
-4.913399667790399050e-01 -3.379011898545712335e-06
-4.898621124434533458e-01 -3.632332662738122764e-06
-4.883842581078667866e-01 -3.903764100055562404e-06
-4.869064037722802274e-01 -4.194532462119329628e-06
-4.854285494366936682e-01 -4.505941891702708642e-06
-4.839506951011071090e-01 -4.839379000567200200e-06
-4.824728407655205498e-01 -5.196317690835082289e-06
-4.809949864299339906e-01 -5.578324231167512558e-06
-4.795171320943474313e-01 -5.987062599430718996e-06
-4.780392777587608721e-01 -6.424300103957054590e-06
-4.765614234231743129e-01 -6.891913295935539928e-06
-4.750835690875877537e-01 -7.391894185907646505e-06
-4.736057147520011945e-01 -7.926356777787900995e-06
-4.721278604164146353e-01 -8.497543934282863985e-06
-4.706500060808280761e-01 -9.107834588041243692e-06
-4.691721517452415169e-01 -9.759751313333276149e-06
-4.676942974096549577e-01 -1.045596827352824186e-05
-4.662164430740683985e-01 -1.119931956011533061e-05
-4.647385887384818393e-01 -1.199280793949225561e-05
-4.632607344028952800e-01 -1.283961402422942132e-05
-4.617828800673087208e-01 -1.374310588600431239e-05
-4.603050257317221616e-01 -1.470684912788635599e-05
-4.588271713961356024e-01 -1.573461743414277970e-05
-4.573493170605490432e-01 -1.683040361622326457e-05
-4.558714627249624840e-01 -1.799843117406698688e-05
-4.543936083893759248e-01 -1.924316639236164908e-05
-4.529157540537893656e-01 -2.056933099186150537e-05
-4.514378997182028064e-01 -2.198191535634952030e-05
-4.499600453826162472e-01 -2.348619235629535989e-05
-4.484821910470296880e-01 -2.508773179072194807e-05
-4.470043367114431287e-01 -2.679241546924583312e-05
-4.455264823758565695e-01 -2.860645295669361714e-05
-4.440486280402700103e-01 -3.053639800312326366e-05
-4.425707737046834511e-01 -3.258916568249530025e-05
-4.410929193690968919e-01 -3.477205026362638937e-05
-4.396150650335103327e-01 -3.709274383743792311e-05
-4.381372106979237735e-01 -3.955935572486584908e-05
-4.366593563623372143e-01 -4.218043269012995434e-05
-4.351815020267506551e-01 -4.496497998436378458e-05
-4.337036476911640959e-01 -4.792248324488427322e-05
-4.322257933555775367e-01 -5.106293127562918320e-05
-4.307479390199909774e-01 -5.439683973450128022e-05
-4.292700846844044182e-01 -5.793527575352991436e-05
-4.277922303488178590e-01 -6.168988351790838246e-05
-4.263143760132312998e-01 -6.567291083005522218e-05
-4.248365216776447406e-01 -6.989723668489081459e-05
-4.233586673420581814e-01 -7.437639988254208514e-05
-4.218808130064716222e-01 -7.912462870461798550e-05
-4.204029586708850630e-01 -8.415687168010331379e-05
-4.189251043352985038e-01 -8.948882946675880878e-05
-4.174472499997119446e-01 -9.513698787368356344e-05
-4.159693956641253854e-01 -1.011186520504106441e-04
-4.144915413285388261e-01 -1.074519818675361541e-04
-4.130136869929522669e-01 -1.141560285134723545e-04
-4.115358326573657077e-01 -1.212507723313790736e-04
-4.100579783217791485e-01 -1.287571619197491074e-04
-4.085801239861925893e-01 -1.366971545194519983e-04
-4.071022696506060301e-01 -1.450937577092685396e-04
-4.056244153150194709e-01 -1.539710724310861195e-04
-4.041465609794329117e-01 -1.633543373649822450e-04
-4.026687066438463525e-01 -1.732699746733578489e-04
-4.011908523082597933e-01 -1.837456371321157260e-04
-3.997129979726732341e-01 -1.948102566656184870e-04
-3.982351436370866749e-01 -2.064940943007691437e-04
-3.967572893015001156e-01 -2.188287915540356821e-04
-3.952794349659135564e-01 -2.318474232636412631e-04
-3.938015806303269972e-01 -2.455845518773645255e-04
-3.923237262947404380e-01 -2.600762832045281150e-04
-3.908458719591538788e-01 -2.753603236386870773e-04
-3.893680176235673196e-01 -2.914760388554459730e-04
-3.878901632879807604e-01 -3.084645139874502505e-04
-3.864123089523942012e-01 -3.263686152761951760e-04
-3.849344546168076420e-01 -3.452330531976727408e-04
-3.834566002812210828e-01 -3.651044470561507177e-04
-3.819787459456345236e-01 -3.860313910373926291e-04
-3.805008916100479643e-01 -4.080645217096632378e-04
-3.790230372744614051e-01 -4.312565869575082380e-04
-3.775451829388748459e-01 -4.556625163299831251e-04
-3.760673286032882867e-01 -4.813394927813693740e-04
-3.745894742677017275e-01 -5.083470257787074328e-04
-3.731116199321151683e-01 -5.367470257465161007e-04
-3.716337655965286091e-01 -5.666038798150107181e-04
-3.701559112609420499e-01 -5.979845288337963874e-04
-3.686780569253554907e-01 -6.309585456086605048e-04
-3.672002025897689315e-01 -6.655982143143015410e-04
-3.657223482541823723e-01 -7.019786110311539715e-04
-3.642444939185958130e-01 -7.401776853494030544e-04
-3.627666395830092538e-01 -7.802763429781132444e-04
-3.612887852474226946e-01 -8.223585292920514069e-04
-3.598109309118361354e-01 -8.665113137431968262e-04
-3.583330765762495762e-01 -9.128249750583345432e-04
-3.568552222406630170e-01 -9.613930871381600254e-04
-3.553773679050764578e-01 -1.012312605567169781e-03
-3.538995135694898986e-01 -1.065683954637635864e-03
-3.524216592339033394e-01 -1.121611114784387729e-03
-3.509438048983167802e-01 -1.180201710320540314e-03
-3.494659505627302210e-01 -1.241567097357802220e-03
-3.479880962271436617e-01 -1.305822451787930303e-03
-3.465102418915571025e-01 -1.373086857195096730e-03
-3.450323875559705433e-01 -1.443483392561607532e-03
-3.435545332203839841e-01 -1.517139219622350935e-03
-3.420766788847974249e-01 -1.594185669715882494e-03
-3.405988245492108657e-01 -1.674758329972541194e-03
-3.391209702136243065e-01 -1.758997128672470239e-03
-3.376431158780377473e-01 -1.847046419598869730e-03
-3.361652615424511881e-01 -1.939055065203776698e-03
-3.346874072068646289e-01 -2.035176518396069213e-03
-3.332095528712780697e-01 -2.135568902753653530e-03
-3.317316985356915104e-01 -2.240395090953650921e-03
-3.302538442001049512e-01 -2.349822781206511915e-03
-3.287759898645183920e-01 -2.464024571472499519e-03
-3.272981355289318328e-01 -2.583178031230514479e-03
-3.258202811933452736e-01 -2.707465770561752472e-03
-3.243424268577587144e-01 -2.837075506302654416e-03
-3.228645725221721552e-01 -2.972200125014287046e-03
-3.213867181865855960e-01 -3.113037742507075711e-03
-3.199088638509990368e-01 -3.259791759652499489e-03
-3.184310095154124776e-01 -3.412670914206406350e-03
-3.169531551798259184e-01 -3.571889328360592156e-03
-3.154753008442393591e-01 -3.737666551732644112e-03
-3.139974465086527999e-01 -3.910227599497447838e-03
-3.125195921730662407e-01 -4.089802985356540306e-03
-3.110417378374796815e-01 -4.276628749035503094e-03
-3.095638835018931223e-01 -4.470946477993316751e-03
-3.080860291663065631e-01 -4.673003323022267147e-03
-3.066081748307200039e-01 -4.883052007410907530e-03
-3.051303204951334447e-01 -5.101350829337620435e-03
-3.036524661595468855e-01 -5.328163657158258709e-03
-3.021746118239603263e-01 -5.563759917246670697e-03
-3.006967574883737671e-01 -5.808414574042397409e-03
-2.992189031527872078e-01 -6.062408101957988092e-03
-2.977410488172006486e-01 -6.326026448794748111e-03
-2.962631944816140894e-01 -6.599560990312822173e-03
-2.947853401460275302e-01 -6.883308475601414463e-03
-2.933074858104409710e-01 -7.177570962892524699e-03
-2.918296314748544118e-01 -7.482655745461758677e-03
